VARIABLES= Temp_[K], H-H298_[kcal/mol], G-H298_[kcal/mol], Cp_[cal/(mol-K)], S_[cal/(mol-K)], Viscosity_[gm/(cm-s)], Therm_Cond_[erg/(cm-s-K)], Dif_Co_with_H_[cm^2/s]
   298.15    0.000    -11.483      5.24      38.52     2.4814E-04  4836.           1.780    
   300.00    0.010    -11.555      5.23      38.55     2.4921E-04  4857.           1.799    
   310.00    0.062    -11.941      5.22      38.72     2.5499E-04  4969.           1.908    
   320.00    0.114    -12.329      5.21      38.89     2.6070E-04  5080.           2.020    
   330.00    0.166    -12.719      5.20      39.05     2.6634E-04  5190.           2.133    
   340.00    0.218    -13.110      5.18      39.20     2.7192E-04  5299.           2.250    
   350.00    0.270    -13.503      5.17      39.35     2.7743E-04  5407.           2.368    
   360.00    0.321    -13.897      5.16      39.50     2.8289E-04  5513.           2.490    
   370.00    0.373    -14.293      5.15      39.64     2.8828E-04  5618.           2.613    
   380.00    0.425    -14.690      5.15      39.77     2.9362E-04  5722.           2.739    
   390.00    0.476    -15.088      5.14      39.91     2.9891E-04  5825.           2.867    
   400.00    0.527    -15.488      5.13      40.04     3.0415E-04  5927.           2.998    
   410.00    0.579    -15.889      5.12      40.16     3.0933E-04  6028.           3.130    
   420.00    0.630    -16.291      5.12      40.29     3.1447E-04  6128.           3.265    
   430.00    0.681    -16.695      5.11      40.41     3.1956E-04  6227.           3.402    
   440.00    0.732    -17.099      5.10      40.53     3.2460E-04  6326.           3.542    
   450.00    0.783    -17.505      5.10      40.64     3.2960E-04  6423.           3.683    
   460.00    0.834    -17.912      5.09      40.75     3.3456E-04  6520.           3.827    
   470.00    0.885    -18.320      5.09      40.86     3.3948E-04  6616.           3.973    
   480.00    0.936    -18.729      5.09      40.97     3.4435E-04  6711.           4.121    
   490.00    0.987    -19.140      5.08      41.07     3.4919E-04  6805.           4.271    
   500.00    1.037    -19.551      5.08      41.18     3.5399E-04  6899.           4.423    
   510.00    1.088    -19.963      5.07      41.28     3.5875E-04  6991.           4.577    
   520.00    1.139    -20.376      5.07      41.38     3.6348E-04  7083.           4.733    
   530.00    1.190    -20.791      5.07      41.47     3.6817E-04  7175.           4.892    
   540.00    1.240    -21.206      5.07      41.57     3.7283E-04  7266.           5.052    
   550.00    1.291    -21.622      5.06      41.66     3.7745E-04  7356.           5.214    
   560.00    1.342    -22.039      5.06      41.75     3.8204E-04  7445.           5.378    
   570.00    1.392    -22.457      5.06      41.84     3.8660E-04  7534.           5.544    
   580.00    1.443    -22.876      5.06      41.93     3.9113E-04  7622.           5.713    
   590.00    1.493    -23.295      5.05      42.01     3.9563E-04  7710.           5.883    
   600.00    1.544    -23.716      5.05      42.10     4.0010E-04  7797.           6.055    
   610.00    1.594    -24.137      5.05      42.18     4.0454E-04  7884.           6.228    
   620.00    1.645    -24.560      5.05      42.27     4.0896E-04  7970.           6.404    
   630.00    1.695    -24.983      5.05      42.35     4.1334E-04  8055.           6.582    
   640.00    1.746    -25.407      5.04      42.43     4.1770E-04  8140.           6.761    
   650.00    1.796    -25.831      5.04      42.50     4.2203E-04  8224.           6.943    
   660.00    1.847    -26.257      5.04      42.58     4.2634E-04  8308.           7.126    
   670.00    1.897    -26.683      5.04      42.66     4.3062E-04  8392.           7.311    
   680.00    1.947    -27.110      5.04      42.73     4.3488E-04  8475.           7.498    
   690.00    1.998    -27.537      5.04      42.80     4.3911E-04  8557.           7.686    
   700.00    2.048    -27.966      5.03      42.88     4.4332E-04  8639.           7.877    
   710.00    2.098    -28.395      5.03      42.95     4.4750E-04  8721.           8.069    
   720.00    2.149    -28.825      5.03      43.02     4.5167E-04  8802.           8.263    
   730.00    2.199    -29.255      5.03      43.09     4.5581E-04  8883.           8.459    
   740.00    2.249    -29.687      5.03      43.16     4.5992E-04  8963.           8.656    
   750.00    2.300    -30.119      5.03      43.22     4.6402E-04  9043.           8.855    
   760.00    2.350    -30.551      5.02      43.29     4.6810E-04  9122.           9.056    
   770.00    2.400    -30.984      5.02      43.36     4.7215E-04  9201.           9.259    
   780.00    2.450    -31.418      5.02      43.42     4.7619E-04  9280.           9.464    
   790.00    2.500    -31.853      5.02      43.48     4.8020E-04  9358.           9.670    
   800.00    2.551    -32.288      5.02      43.55     4.8420E-04  9436.           9.877    
   810.00    2.601    -32.724      5.01      43.61     4.8818E-04  9513.           10.09    
   820.00    2.651    -33.160      5.01      43.67     4.9213E-04  9591.           10.30    
   830.00    2.701    -33.597      5.01      43.73     4.9607E-04  9667.           10.51    
   840.00    2.751    -34.035      5.01      43.79     4.9999E-04  9744.           10.73    
   850.00    2.801    -34.473      5.01      43.85     5.0390E-04  9820.           10.94    
   860.00    2.851    -34.912      5.01      43.91     5.0778E-04  9896.           11.16    
   870.00    2.901    -35.351      5.00      43.97     5.1165E-04  9971.           11.38    
   880.00    2.951    -35.791      5.00      44.03     5.1550E-04 1.0046E+04       11.60    
   890.00    3.001    -36.232      5.00      44.08     5.1933E-04 1.0121E+04       11.82    
   900.00    3.051    -36.673      5.00      44.14     5.2315E-04 1.0195E+04       12.05    
   910.00    3.101    -37.114      5.00      44.19     5.2695E-04 1.0269E+04       12.27    
   920.00    3.151    -37.557      5.00      44.25     5.3074E-04 1.0343E+04       12.50    
   930.00    3.201    -37.999      5.00      44.30     5.3451E-04 1.0416E+04       12.73    
   940.00    3.251    -38.443      5.00      44.36     5.3826E-04 1.0490E+04       12.96    
   950.00    3.301    -38.887      5.00      44.41     5.4200E-04 1.0562E+04       13.19    
   960.00    3.351    -39.331      5.00      44.46     5.4572E-04 1.0635E+04       13.43    
   970.00    3.401    -39.776      5.00      44.51     5.4943E-04 1.0707E+04       13.66    
   980.00    3.451    -40.221      5.00      44.56     5.5313E-04 1.0779E+04       13.90    
   990.00    3.501    -40.667      5.00      44.61     5.5680E-04 1.0851E+04       14.14    
  1000.01    3.551    -41.114      5.00      44.66     5.6047E-04 1.0922E+04       14.38    
  1010.00    3.601    -41.560      5.00      44.71     5.6412E-04 1.0993E+04       14.62    
  1020.00    3.651    -42.008      5.00      44.76     5.6776E-04 1.1064E+04       14.86    
  1030.00    3.701    -42.456      5.00      44.81     5.7138E-04 1.1135E+04       15.11    
  1040.00    3.751    -42.904      5.00      44.86     5.7499E-04 1.1205E+04       15.35    
  1050.00    3.801    -43.353      5.00      44.91     5.7859E-04 1.1275E+04       15.60    
  1060.00    3.851    -43.802      5.00      44.96     5.8217E-04 1.1345E+04       15.85    
  1070.00    3.901    -44.252      5.00      45.00     5.8574E-04 1.1415E+04       16.10    
  1080.00    3.951    -44.702      5.00      45.05     5.8930E-04 1.1484E+04       16.35    
  1090.00    4.001    -45.153      5.00      45.10     5.9285E-04 1.1553E+04       16.61    
  1100.00    4.051    -45.604      5.00      45.14     5.9638E-04 1.1622E+04       16.86    
  1110.00    4.101    -46.056      5.00      45.19     5.9990E-04 1.1691E+04       17.12    
  1120.00    4.151    -46.508      5.00      45.23     6.0341E-04 1.1759E+04       17.38    
  1130.00    4.201    -46.960      5.00      45.28     6.0691E-04 1.1827E+04       17.64    
  1140.00    4.251    -47.413      5.00      45.32     6.1040E-04 1.1895E+04       17.90    
  1150.00    4.301    -47.867      4.99      45.36     6.1387E-04 1.1963E+04       18.16    
  1160.00    4.351    -48.321      4.99      45.41     6.1733E-04 1.2030E+04       18.43    
  1170.00    4.401    -48.775      4.99      45.45     6.2078E-04 1.2098E+04       18.69    
  1180.00    4.451    -49.230      4.99      45.49     6.2422E-04 1.2165E+04       18.96    
  1190.00    4.501    -49.685      4.99      45.53     6.2765E-04 1.2232E+04       19.23    
  1200.00    4.551    -50.140      4.99      45.58     6.3107E-04 1.2298E+04       19.50    
  1210.00    4.600    -50.596      4.99      45.62     6.3448E-04 1.2365E+04       19.77    
  1220.00    4.650    -51.053      4.99      45.66     6.3787E-04 1.2431E+04       20.04    
  1230.00    4.700    -51.509      4.99      45.70     6.4126E-04 1.2497E+04       20.32    
  1240.00    4.750    -51.967      4.99      45.74     6.4463E-04 1.2562E+04       20.59    
  1250.00    4.800    -52.424      4.99      45.78     6.4800E-04 1.2628E+04       20.87    
  1260.00    4.850    -52.882      4.99      45.82     6.5135E-04 1.2693E+04       21.15    
  1270.00    4.900    -53.341      4.99      45.86     6.5470E-04 1.2759E+04       21.43    
  1280.00    4.950    -53.799      4.99      45.90     6.5803E-04 1.2824E+04       21.71    
  1290.00    5.000    -54.258      4.99      45.94     6.6136E-04 1.2888E+04       21.99    
  1300.00    5.050    -54.718      4.99      45.98     6.6467E-04 1.2953E+04       22.28    
  1310.00    5.100    -55.178      4.99      46.01     6.6798E-04 1.3017E+04       22.56    
  1320.00    5.149    -55.638      4.99      46.05     6.7128E-04 1.3082E+04       22.85    
  1330.00    5.199    -56.099      4.99      46.09     6.7456E-04 1.3146E+04       23.14    
  1340.00    5.249    -56.560      4.99      46.13     6.7784E-04 1.3210E+04       23.43    
  1350.00    5.299    -57.022      4.99      46.16     6.8111E-04 1.3273E+04       23.72    
  1360.00    5.349    -57.483      4.99      46.20     6.8437E-04 1.3337E+04       24.01    
  1370.00    5.399    -57.946      4.99      46.24     6.8762E-04 1.3400E+04       24.31    
  1380.00    5.449    -58.408      4.99      46.27     6.9086E-04 1.3463E+04       24.60    
  1390.00    5.499    -58.871      4.99      46.31     6.9409E-04 1.3526E+04       24.90    
  1400.00    5.548    -59.334      4.99      46.34     6.9731E-04 1.3589E+04       25.20    
  1410.00    5.598    -59.798      4.99      46.38     7.0053E-04 1.3652E+04       25.50    
  1420.00    5.648    -60.262      4.99      46.42     7.0374E-04 1.3714E+04       25.80    
  1430.00    5.698    -60.726      4.98      46.45     7.0693E-04 1.3777E+04       26.10    
  1440.00    5.748    -61.191      4.98      46.49     7.1012E-04 1.3839E+04       26.40    
  1450.00    5.798    -61.656      4.98      46.52     7.1330E-04 1.3901E+04       26.71    
  1460.00    5.847    -62.121      4.98      46.55     7.1648E-04 1.3963E+04       27.01    
  1470.00    5.897    -62.587      4.98      46.59     7.1964E-04 1.4024E+04       27.32    
  1480.00    5.947    -63.053      4.98      46.62     7.2280E-04 1.4086E+04       27.63    
  1490.00    5.997    -63.519      4.98      46.66     7.2595E-04 1.4147E+04       27.94    
  1500.00    6.047    -63.986      4.98      46.69     7.2909E-04 1.4208E+04       28.25    
  1510.00    6.097    -64.453      4.98      46.72     7.3222E-04 1.4269E+04       28.57    
  1520.00    6.146    -64.921      4.98      46.75     7.3535E-04 1.4330E+04       28.88    
  1530.00    6.196    -65.388      4.98      46.79     7.3847E-04 1.4391E+04       29.19    
  1540.00    6.246    -65.856      4.98      46.82     7.4158E-04 1.4452E+04       29.51    
  1550.00    6.296    -66.325      4.98      46.85     7.4468E-04 1.4512E+04       29.83    
  1560.00    6.346    -66.793      4.98      46.88     7.4777E-04 1.4572E+04       30.15    
  1570.00    6.396    -67.262      4.98      46.92     7.5086E-04 1.4633E+04       30.47    
  1580.00    6.445    -67.732      4.98      46.95     7.5394E-04 1.4693E+04       30.79    
  1590.00    6.495    -68.201      4.98      46.98     7.5701E-04 1.4753E+04       31.12    
  1600.00    6.545    -68.671      4.98      47.01     7.6008E-04 1.4812E+04       31.44    
  1610.00    6.595    -69.142      4.98      47.04     7.6314E-04 1.4872E+04       31.77    
  1620.00    6.645    -69.612      4.98      47.07     7.6619E-04 1.4931E+04       32.09    
  1630.00    6.694    -70.083      4.98      47.10     7.6924E-04 1.4991E+04       32.42    
  1640.00    6.744    -70.554      4.98      47.13     7.7227E-04 1.5050E+04       32.75    
  1650.00    6.794    -71.026      4.98      47.16     7.7530E-04 1.5109E+04       33.08    
  1660.00    6.844    -71.497      4.98      47.19     7.7833E-04 1.5168E+04       33.42    
  1670.00    6.894    -71.969      4.98      47.22     7.8135E-04 1.5227E+04       33.75    
  1680.00    6.943    -72.442      4.98      47.25     7.8436E-04 1.5285E+04       34.09    
  1690.00    6.993    -72.915      4.98      47.28     7.8736E-04 1.5344E+04       34.42    
  1700.00    7.043    -73.388      4.98      47.31     7.9036E-04 1.5402E+04       34.76    
  1710.00    7.093    -73.861      4.98      47.34     7.9335E-04 1.5461E+04       35.10    
  1720.00    7.143    -74.334      4.98      47.37     7.9633E-04 1.5519E+04       35.44    
  1730.00    7.192    -74.808      4.98      47.40     7.9931E-04 1.5577E+04       35.78    
  1740.00    7.242    -75.282      4.98      47.43     8.0228E-04 1.5635E+04       36.12    
  1750.00    7.292    -75.757      4.98      47.46     8.0525E-04 1.5692E+04       36.47    
  1760.00    7.342    -76.231      4.98      47.48     8.0821E-04 1.5750E+04       36.81    
  1770.00    7.391    -76.706      4.98      47.51     8.1116E-04 1.5808E+04       37.16    
  1780.00    7.441    -77.182      4.98      47.54     8.1411E-04 1.5865E+04       37.51    
  1790.00    7.491    -77.657      4.98      47.57     8.1705E-04 1.5922E+04       37.86    
  1800.00    7.541    -78.133      4.98      47.60     8.1998E-04 1.5980E+04       38.21    
  1810.00    7.591    -78.609      4.98      47.62     8.2291E-04 1.6037E+04       38.56    
  1820.00    7.640    -79.086      4.98      47.65     8.2583E-04 1.6094E+04       38.91    
  1830.00    7.690    -79.562      4.98      47.68     8.2875E-04 1.6150E+04       39.27    
  1840.00    7.740    -80.039      4.98      47.71     8.3166E-04 1.6207E+04       39.62    
  1850.00    7.790    -80.516      4.98      47.73     8.3457E-04 1.6264E+04       39.98    
  1860.00    7.839    -80.994      4.98      47.76     8.3746E-04 1.6320E+04       40.34    
  1870.00    7.889    -81.472      4.98      47.79     8.4036E-04 1.6377E+04       40.69    
  1880.00    7.939    -81.950      4.98      47.81     8.4325E-04 1.6433E+04       41.05    
  1890.00    7.989    -82.428      4.98      47.84     8.4613E-04 1.6489E+04       41.42    
  1900.00    8.038    -82.906      4.98      47.87     8.4901E-04 1.6545E+04       41.78    
  1910.00    8.088    -83.385      4.98      47.89     8.5188E-04 1.6601E+04       42.14    
  1920.00    8.138    -83.864      4.98      47.92     8.5474E-04 1.6657E+04       42.51    
  1930.00    8.188    -84.343      4.98      47.94     8.5760E-04 1.6713E+04       42.88    
  1940.00    8.238    -84.823      4.98      47.97     8.6046E-04 1.6768E+04       43.24    
  1950.00    8.287    -85.303      4.98      47.99     8.6331E-04 1.6824E+04       43.61    
  1960.00    8.337    -85.783      4.98      48.02     8.6615E-04 1.6879E+04       43.98    
  1970.00    8.387    -86.263      4.98      48.05     8.6899E-04 1.6935E+04       44.35    
  1980.00    8.437    -86.744      4.98      48.07     8.7182E-04 1.6990E+04       44.73    
  1990.00    8.486    -87.225      4.98      48.10     8.7465E-04 1.7045E+04       45.10    
  2000.00    8.536    -87.706      4.98      48.12     8.7747E-04 1.7100E+04       45.47    
  2010.00    8.586    -88.187      4.98      48.15     8.8029E-04 1.7155E+04       45.85    
  2020.00    8.636    -88.669      4.98      48.17     8.8310E-04 1.7210E+04       46.23    
  2030.00    8.685    -89.150      4.98      48.20     8.8591E-04 1.7264E+04       46.61    
  2040.00    8.735    -89.633      4.98      48.22     8.8871E-04 1.7319E+04       46.99    
  2050.00    8.785    -90.115      4.98      48.24     8.9151E-04 1.7374E+04       47.37    
  2060.00    8.835    -90.597      4.98      48.27     8.9430E-04 1.7428E+04       47.75    
  2070.00    8.884    -91.080      4.98      48.29     8.9709E-04 1.7482E+04       48.13    
  2080.00    8.934    -91.563      4.98      48.32     8.9987E-04 1.7537E+04       48.52    
  2090.00    8.984    -92.047      4.98      48.34     9.0265E-04 1.7591E+04       48.90    
  2100.00    9.034    -92.530      4.98      48.36     9.0543E-04 1.7645E+04       49.29    
  2110.00    9.084    -93.014      4.98      48.39     9.0819E-04 1.7699E+04       49.68    
  2120.00    9.133    -93.498      4.98      48.41     9.1096E-04 1.7753E+04       50.07    
  2130.00    9.183    -93.982      4.98      48.43     9.1372E-04 1.7806E+04       50.46    
  2140.00    9.233    -94.467      4.98      48.46     9.1647E-04 1.7860E+04       50.85    
  2150.00    9.283    -94.951      4.98      48.48     9.1922E-04 1.7914E+04       51.24    
  2160.00    9.332    -95.436      4.98      48.50     9.2197E-04 1.7967E+04       51.64    
  2170.00    9.382    -95.921      4.98      48.53     9.2471E-04 1.8020E+04       52.03    
  2180.00    9.432    -96.407      4.98      48.55     9.2744E-04 1.8074E+04       52.43    
  2190.00    9.482    -96.892      4.98      48.57     9.3017E-04 1.8127E+04       52.83    
  2200.00    9.531    -97.378      4.98      48.60     9.3290E-04 1.8180E+04       53.23    
  2210.00    9.581    -97.864      4.98      48.62     9.3562E-04 1.8233E+04       53.63    
  2220.00    9.631    -98.350      4.98      48.64     9.3834E-04 1.8286E+04       54.03    
  2230.00    9.681    -98.837      4.98      48.66     9.4105E-04 1.8339E+04       54.43    
  2240.00    9.731    -99.324      4.98      48.68     9.4376E-04 1.8392E+04       54.84    
  2250.00    9.780    -99.811      4.98      48.71     9.4647E-04 1.8445E+04       55.24    
  2260.00    9.830   -100.298      4.98      48.73     9.4917E-04 1.8497E+04       55.65    
  2270.00    9.880   -100.785      4.98      48.75     9.5186E-04 1.8550E+04       56.05    
  2280.00    9.930   -101.273      4.98      48.77     9.5455E-04 1.8602E+04       56.46    
  2290.00    9.979   -101.761      4.98      48.79     9.5724E-04 1.8655E+04       56.87    
  2300.00   10.029   -102.249      4.98      48.82     9.5992E-04 1.8707E+04       57.28    
  2310.00   10.079   -102.737      4.98      48.84     9.6260E-04 1.8759E+04       57.69    
  2320.00   10.129   -103.226      4.98      48.86     9.6528E-04 1.8811E+04       58.11    
  2330.00   10.179   -103.714      4.98      48.88     9.6795E-04 1.8863E+04       58.52    
  2340.00   10.228   -104.203      4.98      48.90     9.7062E-04 1.8915E+04       58.94    
  2350.00   10.278   -104.692      4.98      48.92     9.7328E-04 1.8967E+04       59.35    
  2360.00   10.328   -105.182      4.98      48.94     9.7594E-04 1.9019E+04       59.77    
  2370.00   10.378   -105.671      4.98      48.97     9.7859E-04 1.9071E+04       60.19    
  2380.00   10.428   -106.161      4.98      48.99     9.8124E-04 1.9122E+04       60.61    
  2390.00   10.477   -106.651      4.98      49.01     9.8389E-04 1.9174E+04       61.03    
  2400.00   10.527   -107.141      4.98      49.03     9.8653E-04 1.9225E+04       61.45    
  2410.00   10.577   -107.632      4.98      49.05     9.8917E-04 1.9277E+04       61.88    
