TITLE="Graphics"
VARIABLES= "T", "diff_CH2CHO_CH2(S)"
300 0.148762
310 0.158652
320 0.168807
330 0.179225
340 0.189901
350 0.200831
360 0.212013
370 0.223443
380 0.235118
390 0.247034
400 0.25919
410 0.271582
420 0.284207
430 0.297064
440 0.310148
450 0.323458
460 0.336991
470 0.350746
480 0.364719
490 0.378908
500 0.393312
510 0.407929
520 0.422755
530 0.43779
540 0.453032
550 0.468478
560 0.484127
570 0.499978
580 0.516027
590 0.532275
600 0.548719
610 0.565357
620 0.582189
630 0.599212
640 0.616426
650 0.633828
660 0.651418
670 0.669194
680 0.687155
690 0.705299
700 0.723625
710 0.742133
720 0.76082
730 0.779686
740 0.79873
750 0.81795
760 0.837346
770 0.856916
780 0.876659
790 0.896574
800 0.916661
810 0.936918
820 0.957344
830 0.977939
840 0.998701
850 1.01963
860 1.04072
870 1.06198
880 1.08341
890 1.10499
900 1.12674
910 1.14865
920 1.17073
930 1.19296
940 1.21535
950 1.2379
960 1.2606
970 1.28347
980 1.30649
990 1.32967
1000 1.353
1010 1.37648
1020 1.40012
1030 1.42392
1040 1.44786
1050 1.47196
1060 1.49621
1070 1.52061
1080 1.54516
1090 1.56985
1100 1.5947
1110 1.6197
1120 1.64484
1130 1.67013
1140 1.69557
1150 1.72116
1160 1.74689
1170 1.77276
1180 1.79878
1190 1.82495
1200 1.85125
1210 1.87771
1220 1.9043
1230 1.93104
1240 1.95792
1250 1.98494
1260 2.0121
1270 2.0394
1280 2.06684
1290 2.09442
1300 2.12214
1310 2.15
1320 2.178
1330 2.20614
1340 2.23441
1350 2.26283
1360 2.29138
1370 2.32006
1380 2.34888
1390 2.37784
1400 2.40693
1410 2.43616
1420 2.46553
1430 2.49502
1440 2.52465
1450 2.55442
1460 2.58432
1470 2.61435
1480 2.64452
1490 2.67481
1500 2.70524
1510 2.73581
1520 2.7665
1530 2.79732
1540 2.82828
1550 2.85936
1560 2.89058
1570 2.92193
1580 2.9534
1590 2.98501
1600 3.01675
1610 3.04861
1620 3.0806
1630 3.11272
1640 3.14497
1650 3.17735
1660 3.20986
1670 3.24249
1680 3.27525
1690 3.30813
1700 3.34115
1710 3.37429
1720 3.40755
1730 3.44094
1740 3.47446
1750 3.5081
1760 3.54187
1770 3.57577
1780 3.60978
1790 3.64393
1800 3.67819
1810 3.71258
1820 3.7471
1830 3.78174
1840 3.8165
1850 3.85139
1860 3.88639
1870 3.92153
1880 3.95678
1890 3.99216
1900 4.02766
1910 4.06328
1920 4.09902
1930 4.13489
1940 4.17087
1950 4.20698
1960 4.24321
1970 4.27956
1980 4.31603
1990 4.35262
2000 4.38933
2010 4.42616
2020 4.46312
2030 4.50019
2040 4.53738
2050 4.57469
2060 4.61212
2070 4.64967
2080 4.68734
2090 4.72513
2100 4.76304
2110 4.80106
2120 4.83921
2130 4.87747
2140 4.91585
2150 4.95435
2160 4.99297
2170 5.0317
2180 5.07055
2190 5.10952
2200 5.14861
2210 5.18782
2220 5.22714
2230 5.26657
2240 5.30613
2250 5.3458
2260 5.38559
2270 5.42549
2280 5.46551
2290 5.50565
2300 5.5459
2310 5.58627
2320 5.62675
2330 5.66735
2340 5.70807
2350 5.7489
2360 5.78985
2370 5.83091
2380 5.87208
2390 5.91337
2400 5.95478
2410 5.9963
2420 6.03793
2430 6.07968
2440 6.12154
2450 6.16352
2460 6.20561
2470 6.24782
2480 6.29013
2490 6.33257
2500 6.37511
2510 6.41777
2520 6.46055
2530 6.50343
2540 6.54643
2550 6.58954
2560 6.63277
2570 6.67611
2580 6.71956
2590 6.76312
2600 6.8068
2610 6.85059
2620 6.89449
2630 6.9385
2640 6.98263
2650 7.02687
2660 7.07122
2670 7.11568
2680 7.16025
2690 7.20494
2700 7.24973
2710 7.29464
2720 7.33966
2730 7.38479
2740 7.43004
2750 7.47539
2760 7.52085
2770 7.56643
2780 7.61212
2790 7.65791
2800 7.70382
2810 7.74984
2820 7.79597
2830 7.84221
2840 7.88856
2850 7.93502
2860 7.9816
2870 8.02828
2880 8.07507
2890 8.12197
2900 8.16898
2910 8.21611
2920 8.26334
2930 8.31068
2940 8.35813
2950 8.40569
2960 8.45336
2970 8.50114
2980 8.54903
2990 8.59703
