TITLE="Graphics"
VARIABLES= "T", "diff_CH2OH_CH2(S)"
300 0.169272
310 0.180489
320 0.192006
330 0.203818
340 0.215922
350 0.228312
360 0.240986
370 0.25394
380 0.26717
390 0.280672
400 0.294444
410 0.308482
420 0.322783
430 0.337344
440 0.352162
450 0.367235
460 0.382559
470 0.398132
480 0.413952
490 0.430015
500 0.446321
510 0.462865
520 0.479647
530 0.496664
540 0.513913
550 0.531393
560 0.549101
570 0.567037
580 0.585197
590 0.60358
600 0.622184
610 0.641007
620 0.660049
630 0.679306
640 0.698777
650 0.718462
660 0.738358
670 0.758463
680 0.778777
690 0.799297
700 0.820023
710 0.840954
720 0.862087
730 0.883421
740 0.904956
750 0.926689
760 0.94862
770 0.970748
780 0.993071
790 1.01559
800 1.0383
810 1.0612
820 1.08429
830 1.10758
840 1.13105
850 1.15471
860 1.17856
870 1.20259
880 1.22681
890 1.25121
900 1.27579
910 1.30056
920 1.32551
930 1.35064
940 1.37595
950 1.40144
960 1.4271
970 1.45294
980 1.47896
990 1.50516
1000 1.53153
1010 1.55807
1020 1.58479
1030 1.61168
1040 1.63874
1050 1.66598
1060 1.69338
1070 1.72095
1080 1.7487
1090 1.77661
1100 1.80469
1110 1.83294
1120 1.86135
1130 1.88993
1140 1.91868
1150 1.94759
1160 1.97667
1170 2.00591
1180 2.03531
1190 2.06488
1200 2.09461
1210 2.1245
1220 2.15455
1230 2.18476
1240 2.21514
1250 2.24567
1260 2.27636
1270 2.30721
1280 2.33822
1290 2.36939
1300 2.40071
1310 2.43219
1320 2.46383
1330 2.49562
1340 2.52757
1350 2.55967
1360 2.59193
1370 2.62434
1380 2.65691
1390 2.68963
1400 2.7225
1410 2.75553
1420 2.78871
1430 2.82204
1440 2.85552
1450 2.88915
1460 2.92293
1470 2.95686
1480 2.99095
1490 3.02518
1500 3.05956
1510 3.09409
1520 3.12877
1530 3.1636
1540 3.19858
1550 3.2337
1560 3.26897
1570 3.30439
1580 3.33996
1590 3.37567
1600 3.41152
1610 3.44753
1620 3.48368
1630 3.51997
1640 3.55641
1650 3.59299
1660 3.62972
1670 3.66659
1680 3.7036
1690 3.74076
1700 3.77806
1710 3.8155
1720 3.85309
1730 3.89082
1740 3.92869
1750 3.9667
1760 4.00486
1770 4.04315
1780 4.08159
1790 4.12017
1800 4.15889
1810 4.19774
1820 4.23674
1830 4.27588
1840 4.31516
1850 4.35458
1860 4.39413
1870 4.43383
1880 4.47366
1890 4.51363
1900 4.55375
1910 4.59399
1920 4.63438
1930 4.67491
1940 4.71557
1950 4.75637
1960 4.7973
1970 4.83837
1980 4.87958
1990 4.92093
2000 4.96241
2010 5.00403
2020 5.04578
2030 5.08767
2040 5.1297
2050 5.17186
2060 5.21415
2070 5.25658
2080 5.29915
2090 5.34185
2100 5.38468
2110 5.42765
2120 5.47075
2130 5.51399
2140 5.55736
2150 5.60086
2160 5.6445
2170 5.68827
2180 5.73217
2190 5.7762
2200 5.82037
2210 5.86467
2220 5.90911
2230 5.95367
2240 5.99837
2250 6.0432
2260 6.08816
2270 6.13325
2280 6.17848
2290 6.22383
2300 6.26932
2310 6.31494
2320 6.36068
2330 6.40656
2340 6.45257
2350 6.49871
2360 6.54498
2370 6.59139
2380 6.63792
2390 6.68458
2400 6.73137
2410 6.77829
2420 6.82534
2430 6.87252
2440 6.91983
2450 6.96726
2460 7.01483
2470 7.06253
2480 7.11035
2490 7.15831
2500 7.20639
2510 7.2546
2520 7.30294
2530 7.3514
2540 7.4
2550 7.44872
2560 7.49757
2570 7.54655
2580 7.59566
2590 7.64489
2600 7.69425
2610 7.74374
2620 7.79336
2630 7.8431
2640 7.89297
2650 7.94296
2660 7.99309
2670 8.04334
2680 8.09371
2690 8.14422
2700 8.19485
2710 8.2456
2720 8.29648
2730 8.34749
2740 8.39863
2750 8.44989
2760 8.50127
2770 8.55278
2780 8.60442
2790 8.65618
2800 8.70807
2810 8.76009
2820 8.81222
2830 8.86449
2840 8.91688
2850 8.96939
2860 9.02203
2870 9.07479
2880 9.12768
2890 9.18069
2900 9.23383
2910 9.28709
2920 9.34048
2930 9.39399
2940 9.44762
2950 9.50138
2960 9.55527
2970 9.60927
2980 9.6634
2990 9.71766
