TITLE="Graphics"
VARIABLES= "T", "diff_C3H5-A_CH2(S)"
300 0.150955
310 0.160759
320 0.170816
330 0.181121
340 0.191673
350 0.202466
360 0.213497
370 0.224765
380 0.236265
390 0.247994
400 0.259951
410 0.272131
420 0.284533
430 0.297154
440 0.309992
450 0.323044
460 0.336308
470 0.349781
480 0.363462
490 0.377349
500 0.391439
510 0.40573
520 0.420222
530 0.434911
540 0.449796
550 0.464876
560 0.480149
570 0.495612
580 0.511265
590 0.527106
600 0.543134
610 0.559346
620 0.575743
630 0.592321
640 0.60908
650 0.626019
660 0.643137
670 0.660431
680 0.677901
690 0.695546
700 0.713365
710 0.731355
720 0.749517
730 0.76785
740 0.786351
750 0.805021
760 0.823858
770 0.842861
780 0.862029
790 0.881361
800 0.900857
810 0.920515
820 0.940335
830 0.960316
840 0.980456
850 1.00076
860 1.02121
870 1.04183
880 1.0626
890 1.08353
900 1.10461
910 1.12585
920 1.14724
930 1.16878
940 1.19048
950 1.21233
960 1.23433
970 1.25648
980 1.27878
990 1.30123
1000 1.32382
1010 1.34657
1020 1.36946
1030 1.3925
1040 1.41568
1050 1.43901
1060 1.46249
1070 1.48611
1080 1.50987
1090 1.53378
1100 1.55783
1110 1.58202
1120 1.60636
1130 1.63083
1140 1.65545
1150 1.6802
1160 1.7051
1170 1.73014
1180 1.75531
1190 1.78063
1200 1.80608
1210 1.83167
1220 1.8574
1230 1.88326
1240 1.90926
1250 1.9354
1260 1.96167
1270 1.98808
1280 2.01462
1290 2.0413
1300 2.06811
1310 2.09505
1320 2.12213
1330 2.14934
1340 2.17669
1350 2.20416
1360 2.23177
1370 2.25951
1380 2.28738
1390 2.31538
1400 2.34351
1410 2.37178
1420 2.40017
1430 2.42869
1440 2.45734
1450 2.48613
1460 2.51504
1470 2.54407
1480 2.57324
1490 2.60253
1500 2.63196
1510 2.66151
1520 2.69118
1530 2.72098
1540 2.75091
1550 2.78097
1560 2.81115
1570 2.84146
1580 2.87189
1590 2.90245
1600 2.93313
1610 2.96394
1620 2.99487
1630 3.02593
1640 3.05711
1650 3.08841
1660 3.11984
1670 3.15139
1680 3.18306
1690 3.21486
1700 3.24678
1710 3.27882
1720 3.31098
1730 3.34327
1740 3.37568
1750 3.40821
1760 3.44086
1770 3.47363
1780 3.50652
1790 3.53953
1800 3.57267
1810 3.60592
1820 3.63929
1830 3.67279
1840 3.7064
1850 3.74013
1860 3.77399
1870 3.80796
1880 3.84205
1890 3.87626
1900 3.91059
1910 3.94503
1920 3.9796
1930 4.01428
1940 4.04908
1950 4.084
1960 4.11904
1970 4.15419
1980 4.18946
1990 4.22485
2000 4.26036
2010 4.29598
2020 4.33172
2030 4.36757
2040 4.40354
2050 4.43963
2060 4.47584
2070 4.51216
2080 4.54859
2090 4.58514
2100 4.62181
2110 4.65859
2120 4.69549
2130 4.7325
2140 4.76963
2150 4.80687
2160 4.84423
2170 4.8817
2180 4.91929
2190 4.95699
2200 4.9948
2210 5.03273
2220 5.07077
2230 5.10893
2240 5.1472
2250 5.18558
2260 5.22408
2270 5.26269
2280 5.30141
2290 5.34025
2300 5.3792
2310 5.41826
2320 5.45743
2330 5.49672
2340 5.53612
2350 5.57563
2360 5.61526
2370 5.655
2380 5.69484
2390 5.7348
2400 5.77488
2410 5.81506
2420 5.85536
2430 5.89576
2440 5.93628
2450 5.97691
2460 6.01765
2470 6.05851
2480 6.09947
2490 6.14054
2500 6.18173
2510 6.22303
2520 6.26443
2530 6.30595
2540 6.34758
2550 6.38931
2560 6.43116
2570 6.47312
2580 6.51519
2590 6.55737
2600 6.59966
2610 6.64205
2620 6.68456
2630 6.72718
2640 6.76991
2650 6.81274
2660 6.85569
2670 6.89875
2680 6.94191
2690 6.98518
2700 7.02857
2710 7.07206
2720 7.11566
2730 7.15937
2740 7.20319
2750 7.24711
2760 7.29115
2770 7.33529
2780 7.37955
2790 7.42391
2800 7.46838
2810 7.51296
2820 7.55764
2830 7.60244
2840 7.64734
2850 7.69235
2860 7.73747
2870 7.78269
2880 7.82803
2890 7.87347
2900 7.91902
2910 7.96467
2920 8.01044
2930 8.05631
2940 8.10229
2950 8.14837
2960 8.19457
2970 8.24087
2980 8.28727
2990 8.33379
