TITLE="Graphics"
VARIABLES= "T", "diff_H2O_CH2(S)"
300 0.237515
310 0.253606
320 0.270145
330 0.287127
340 0.304546
350 0.322396
360 0.340672
370 0.359367
380 0.378478
390 0.397999
400 0.417924
410 0.438251
420 0.458973
430 0.480086
440 0.501587
450 0.523471
460 0.545734
470 0.568373
480 0.591383
490 0.61476
500 0.638502
510 0.662604
520 0.687064
530 0.711878
540 0.737042
550 0.762555
560 0.788412
570 0.814611
580 0.841148
590 0.868022
600 0.895229
610 0.922767
620 0.950633
630 0.978825
640 1.00734
650 1.03618
660 1.06533
670 1.0948
680 1.12458
690 1.15468
700 1.18508
710 1.21579
720 1.24681
730 1.27813
740 1.30976
750 1.34168
760 1.3739
770 1.40641
780 1.43922
790 1.47232
800 1.50571
810 1.53939
820 1.57336
830 1.60761
840 1.64215
850 1.67697
860 1.71207
870 1.74745
880 1.7831
890 1.81904
900 1.85525
910 1.89173
920 1.92848
930 1.96551
940 2.0028
950 2.04036
960 2.07819
970 2.11629
980 2.15465
990 2.19327
1000 2.23216
1010 2.2713
1020 2.31071
1030 2.35038
1040 2.3903
1050 2.43048
1060 2.47091
1070 2.5116
1080 2.55254
1090 2.59374
1100 2.63518
1110 2.67688
1120 2.71883
1130 2.76102
1140 2.80346
1150 2.84615
1160 2.88909
1170 2.93226
1180 2.97569
1190 3.01935
1200 3.06326
1210 3.10741
1220 3.1518
1230 3.19643
1240 3.2413
1250 3.28641
1260 3.33175
1270 3.37733
1280 3.42315
1290 3.4692
1300 3.51548
1310 3.562
1320 3.60875
1330 3.65574
1340 3.70295
1350 3.7504
1360 3.79808
1370 3.84598
1380 3.89412
1390 3.94248
1400 3.99107
1410 4.03989
1420 4.08893
1430 4.1382
1440 4.18769
1450 4.23741
1460 4.28735
1470 4.33751
1480 4.3879
1490 4.43851
1500 4.48934
1510 4.54039
1520 4.59167
1530 4.64316
1540 4.69487
1550 4.7468
1560 4.79895
1570 4.85131
1580 4.90389
1590 4.95669
1600 5.00971
1610 5.06294
1620 5.11639
1630 5.17005
1640 5.22392
1650 5.27801
1660 5.33231
1670 5.38683
1680 5.44155
1690 5.49649
1700 5.55164
1710 5.607
1720 5.66258
1730 5.71836
1740 5.77435
1750 5.83055
1760 5.88696
1770 5.94358
1780 6.00041
1790 6.05744
1800 6.11468
1810 6.17213
1820 6.22979
1830 6.28765
1840 6.34571
1850 6.40399
1860 6.46246
1870 6.52114
1880 6.58003
1890 6.63912
1900 6.69841
1910 6.75791
1920 6.81761
1930 6.87751
1940 6.93761
1950 6.99792
1960 7.05842
1970 7.11913
1980 7.18004
1990 7.24115
2000 7.30246
2010 7.36397
2020 7.42567
2030 7.48758
2040 7.54969
2050 7.61199
2060 7.6745
2070 7.7372
2080 7.8001
2090 7.86319
2100 7.92649
2110 7.98998
2120 8.05366
2130 8.11754
2140 8.18162
2150 8.2459
2160 8.31037
2170 8.37503
2180 8.43989
2190 8.50494
2200 8.57019
2210 8.63563
2220 8.70127
2230 8.7671
2240 8.83312
2250 8.89934
2260 8.96575
2270 9.03235
2280 9.09914
2290 9.16613
2300 9.2333
2310 9.30067
2320 9.36823
2330 9.43598
2340 9.50392
2350 9.57206
2360 9.64038
2370 9.70889
2380 9.77759
2390 9.84648
2400 9.91557
2410 9.98484
2420 10.0543
2430 10.1239
2440 10.1938
2450 10.2638
2460 10.334
2470 10.4044
2480 10.475
2490 10.5458
2500 10.6168
2510 10.6879
2520 10.7592
2530 10.8308
2540 10.9025
2550 10.9744
2560 11.0465
2570 11.1187
2580 11.1912
2590 11.2638
2600 11.3367
2610 11.4097
2620 11.4829
2630 11.5562
2640 11.6298
2650 11.7036
2660 11.7775
2670 11.8516
2680 11.9259
2690 12.0004
2700 12.0751
2710 12.1499
2720 12.225
2730 12.3002
2740 12.3756
2750 12.4512
2760 12.527
2770 12.6029
2780 12.679
2790 12.7554
2800 12.8319
2810 12.9085
2820 12.9854
2830 13.0624
2840 13.1397
2850 13.2171
2860 13.2947
2870 13.3724
2880 13.4504
2890 13.5285
2900 13.6068
2910 13.6853
2920 13.764
2930 13.8428
2940 13.9219
2950 14.0011
2960 14.0805
2970 14.16
2980 14.2398
2990 14.3197
