TITLE="Graphics"
VARIABLES= "T", "diff_CH2(S)_OH"
300 0.340337
310 0.360614
320 0.381351
330 0.402541
340 0.42418
350 0.446262
360 0.46878
370 0.49173
380 0.515107
390 0.538905
400 0.563121
410 0.58775
420 0.612788
430 0.63823
440 0.664072
450 0.690311
460 0.716943
470 0.743964
480 0.771371
490 0.79916
500 0.827329
510 0.855874
520 0.884792
530 0.914079
540 0.943734
550 0.973753
560 1.00413
570 1.03487
580 1.06597
590 1.09742
600 1.12922
610 1.16137
620 1.19387
630 1.22671
640 1.2599
650 1.29342
660 1.32728
670 1.36148
680 1.39602
690 1.43088
700 1.46608
710 1.5016
720 1.53745
730 1.57362
740 1.61012
750 1.64694
760 1.68408
770 1.72154
780 1.75931
790 1.7974
800 1.8358
810 1.87452
820 1.91354
830 1.95287
840 1.99252
850 2.03246
860 2.07272
870 2.11327
880 2.15413
890 2.19529
900 2.23675
910 2.2785
920 2.32056
930 2.36291
940 2.40556
950 2.4485
960 2.49173
970 2.53525
980 2.57907
990 2.62317
1000 2.66756
1010 2.71224
1020 2.75721
1030 2.80246
1040 2.84799
1050 2.89381
1060 2.93991
1070 2.98629
1080 3.03296
1090 3.0799
1100 3.12712
1110 3.17462
1120 3.22239
1130 3.27045
1140 3.31877
1150 3.36737
1160 3.41625
1170 3.4654
1180 3.51482
1190 3.56451
1200 3.61447
1210 3.6647
1220 3.7152
1230 3.76597
1240 3.81701
1250 3.86831
1260 3.91988
1270 3.97171
1280 4.02381
1290 4.07617
1300 4.1288
1310 4.18169
1320 4.23484
1330 4.28825
1340 4.34192
1350 4.39586
1360 4.45005
1370 4.5045
1380 4.55921
1390 4.61418
1400 4.6694
1410 4.72488
1420 4.78062
1430 4.83661
1440 4.89285
1450 4.94935
1460 5.00611
1470 5.06311
1480 5.12037
1490 5.17788
1500 5.23565
1510 5.29366
1520 5.35192
1530 5.41044
1540 5.4692
1550 5.52821
1560 5.58747
1570 5.64698
1580 5.70674
1590 5.76674
1600 5.82699
1610 5.88749
1620 5.94823
1630 6.00921
1640 6.07044
1650 6.13192
1660 6.19364
1670 6.2556
1680 6.31781
1690 6.38025
1700 6.44294
1710 6.50587
1720 6.56905
1730 6.63246
1740 6.69611
1750 6.76001
1760 6.82414
1770 6.88851
1780 6.95312
1790 7.01797
1800 7.08306
1810 7.14839
1820 7.21395
1830 7.27975
1840 7.34579
1850 7.41206
1860 7.47857
1870 7.54531
1880 7.61229
1890 7.67951
1900 7.74695
1910 7.81464
1920 7.88255
1930 7.9507
1940 8.01909
1950 8.0877
1960 8.15655
1970 8.22563
1980 8.29494
1990 8.36448
2000 8.43426
2010 8.50426
2020 8.5745
2030 8.64497
2040 8.71566
2050 8.78659
2060 8.85774
2070 8.92913
2080 9.00074
2090 9.07258
2100 9.14465
2110 9.21695
2120 9.28947
2130 9.36222
2140 9.4352
2150 9.50841
2160 9.58184
2170 9.6555
2180 9.72938
2190 9.80349
2200 9.87783
2210 9.95239
2220 10.0272
2230 10.1022
2240 10.1774
2250 10.2529
2260 10.3286
2270 10.4045
2280 10.4806
2290 10.5569
2300 10.6335
2310 10.7103
2320 10.7873
2330 10.8646
2340 10.942
2350 11.0197
2360 11.0976
2370 11.1758
2380 11.2541
2390 11.3327
2400 11.4115
2410 11.4905
2420 11.5697
2430 11.6492
2440 11.7288
2450 11.8087
2460 11.8888
2470 11.9692
2480 12.0497
2490 12.1305
2500 12.2114
2510 12.2926
2520 12.3741
2530 12.4557
2540 12.5376
2550 12.6196
2560 12.7019
2570 12.7844
2580 12.8671
2590 12.9501
2600 13.0332
2610 13.1166
2620 13.2002
2630 13.284
2640 13.368
2650 13.4522
2660 13.5367
2670 13.6214
2680 13.7062
2690 13.7913
2700 13.8766
2710 13.9622
2720 14.0479
2730 14.1338
2740 14.22
2750 14.3064
2760 14.393
2770 14.4798
2780 14.5668
2790 14.654
2800 14.7415
2810 14.8291
2820 14.917
2830 15.0051
2840 15.0933
2850 15.1818
2860 15.2706
2870 15.3595
2880 15.4486
2890 15.538
2900 15.6275
2910 15.7173
2920 15.8073
2930 15.8975
2940 15.9879
2950 16.0785
2960 16.1693
2970 16.2603
2980 16.3516
2990 16.443
